 $SEQPAR
 ECHOT = 40.0
 HZPPPM = 127.64584959999999
 SEQ = 'PRESS'
 $END
 $NMID
 FMTDAT = '(2E15.6)'
 VOLUME = 8.000000000000002
 $END
   2.212925e+00  -2.074716e-01
   1.526299e+00   1.168098e+00
   3.955170e-01   2.209820e+00
  -1.007607e+00   2.634479e+00
  -2.394354e+00   2.633714e+00
  -3.563318e+00   2.162291e+00
  -4.323938e+00   1.519604e+00
  -4.914874e+00   7.436518e-01
  -4.838496e+00  -1.988588e-01
  -4.520383e+00  -7.384846e-01
  -4.351611e+00  -1.115599e+00
  -3.854846e+00  -1.327969e+00
  -3.552400e+00  -1.259802e+00
  -3.543780e+00  -1.274784e+00
  -3.544476e+00  -1.246470e+00
  -3.594637e+00  -1.152486e+00
  -3.822326e+00  -1.189499e+00
  -3.815994e+00  -1.360735e+00
  -3.925384e+00  -1.427803e+00
  -4.081876e+00  -1.618693e+00
  -4.041232e+00  -1.673861e+00
  -4.091603e+00  -1.833536e+00
  -4.072649e+00  -2.135708e+00
  -3.983705e+00  -2.475801e+00
  -3.788018e+00  -2.767472e+00
  -3.508967e+00  -2.972097e+00
  -3.030890e+00  -3.151364e+00
  -2.573641e+00  -3.078120e+00
  -2.190866e+00  -2.769462e+00
  -1.824692e+00  -2.475841e+00
  -1.756714e+00  -2.003745e+00
  -1.732719e+00  -1.311224e+00
  -2.039507e+00  -9.570775e-01
  -2.460041e+00  -8.390197e-01
  -3.003410e+00  -8.544410e-01
  -3.337863e+00  -1.041621e+00
  -3.757610e+00  -1.687118e+00
  -3.793293e+00  -2.189047e+00
  -3.661264e+00  -2.654529e+00
  -3.406839e+00  -3.119758e+00
  -2.859006e+00  -3.324923e+00
  -2.288682e+00  -3.363994e+00
  -1.789324e+00  -3.051899e+00
  -1.428123e+00  -2.696653e+00
  -1.274128e+00  -2.300057e+00
  -1.227096e+00  -1.828206e+00
  -1.354355e+00  -1.499565e+00
  -1.545360e+00  -1.193760e+00
  -1.944847e+00  -1.059534e+00
  -2.175999e+00  -1.065784e+00
  -2.532903e+00  -9.993178e-01
  -2.746055e+00  -1.093153e+00
  -2.874152e+00  -1.419471e+00
  -2.947175e+00  -1.566369e+00
  -2.870985e+00  -1.701602e+00
  -2.818607e+00  -1.821768e+00
  -2.631397e+00  -1.796737e+00
  -2.609068e+00  -1.769077e+00
  -2.589677e+00  -1.742615e+00
  -2.441068e+00  -1.569480e+00
  -2.565991e+00  -1.506663e+00
  -2.730773e+00  -1.400269e+00
  -3.044985e+00  -1.470901e+00
  -3.275336e+00  -1.649902e+00
  -3.426553e+00  -1.856532e+00
  -3.440347e+00  -2.238824e+00
  -3.359746e+00  -2.539900e+00
  -3.059330e+00  -2.783420e+00
  -2.771057e+00  -2.893416e+00
  -2.373964e+00  -2.921183e+00
  -2.003197e+00  -2.846198e+00
  -1.621323e+00  -2.521711e+00
  -1.404007e+00  -2.160515e+00
  -1.568231e+00  -1.650624e+00
  -1.789379e+00  -1.305867e+00
  -2.007187e+00  -1.057118e+00
  -2.297679e+00  -1.097535e+00
  -2.647713e+00  -1.102170e+00
  -2.912830e+00  -1.348594e+00
  -2.949092e+00  -1.743205e+00
  -2.991896e+00  -1.960194e+00
  -2.919123e+00  -2.220187e+00
  -2.741389e+00  -2.202136e+00
  -2.613422e+00  -2.330844e+00
  -2.346046e+00  -2.494092e+00
  -2.229905e+00  -2.458650e+00
  -2.139404e+00  -2.338856e+00
  -1.989075e+00  -2.262395e+00
  -1.932221e+00  -2.085381e+00
  -1.962739e+00  -1.904479e+00
  -1.994885e+00  -1.825249e+00
  -2.212436e+00  -1.800683e+00
  -2.295751e+00  -1.805168e+00
  -2.326579e+00  -1.742096e+00
  -2.484838e+00  -1.910938e+00
  -2.514446e+00  -2.054314e+00
  -2.521577e+00  -2.181853e+00
  -2.353420e+00  -2.340681e+00
  -2.085383e+00  -2.545608e+00
  -1.878000e+00  -2.522016e+00
  -1.575349e+00  -2.492232e+00
  -1.359522e+00  -2.230464e+00
  -1.214955e+00  -1.928135e+00
  -1.135829e+00  -1.614091e+00
  -1.291700e+00  -1.343307e+00
  -1.594447e+00  -1.053382e+00
  -1.900388e+00  -9.617873e-01
  -2.260294e+00  -1.118769e+00
  -2.523571e+00  -1.325344e+00
  -2.686304e+00  -1.595448e+00
  -2.662031e+00  -1.904854e+00
  -2.567906e+00  -2.169180e+00
  -2.301177e+00  -2.258637e+00
  -1.792593e+00  -2.321317e+00
  -1.582602e+00  -2.175680e+00
  -1.331825e+00  -2.008561e+00
  -1.256304e+00  -1.684001e+00
  -1.347826e+00  -1.418477e+00
  -1.583893e+00  -1.046107e+00
  -1.720572e+00  -9.085446e-01
  -2.000966e+00  -8.499558e-01
  -2.346125e+00  -9.197872e-01
  -2.600315e+00  -1.135644e+00
  -2.754187e+00  -1.289872e+00
  -2.773033e+00  -1.614380e+00
  -2.851133e+00  -1.896656e+00
  -2.762276e+00  -2.145585e+00
  -2.467987e+00  -2.216968e+00
  -2.284704e+00  -2.355162e+00
  -2.154259e+00  -2.293380e+00
  -1.819004e+00  -2.283415e+00
  -1.541340e+00  -2.238240e+00
  -1.433673e+00  -1.969976e+00
  -1.425523e+00  -1.864056e+00
  -1.482103e+00  -1.593214e+00
  -1.572227e+00  -1.450805e+00
  -1.787427e+00  -1.403931e+00
  -1.853114e+00  -1.371157e+00
  -2.054030e+00  -1.417785e+00
  -2.080765e+00  -1.558975e+00
  -1.978676e+00  -1.832146e+00
  -1.885589e+00  -1.882937e+00
  -1.774244e+00  -1.884001e+00
  -1.579750e+00  -1.863970e+00
  -1.503703e+00  -1.773282e+00
  -1.411995e+00  -1.662556e+00
  -1.333243e+00  -1.451432e+00
  -1.576729e+00  -1.243091e+00
  -1.518422e+00  -1.049796e+00
  -1.756468e+00  -9.787883e-01
  -1.931010e+00  -1.124449e+00
  -2.143392e+00  -1.264825e+00
  -2.280505e+00  -1.436748e+00
  -2.301766e+00  -1.677250e+00
  -2.299063e+00  -1.837512e+00
  -2.131592e+00  -2.089138e+00
  -2.043067e+00  -2.250775e+00
  -1.647935e+00  -2.332116e+00
  -1.412315e+00  -2.273179e+00
  -1.095960e+00  -2.191002e+00
  -9.214377e-01  -2.017412e+00
  -7.314830e-01  -1.738363e+00
  -7.730091e-01  -1.358030e+00
  -7.937223e-01  -1.089945e+00
  -8.938809e-01  -9.470176e-01
  -1.187960e+00  -7.685930e-01
  -1.390414e+00  -6.812863e-01
  -1.664983e+00  -7.914149e-01
  -1.903239e+00  -8.591298e-01
  -1.964693e+00  -9.439380e-01
  -2.044006e+00  -1.046323e+00
  -1.914957e+00  -1.345229e+00
  -1.991032e+00  -1.312091e+00
  -1.895417e+00  -1.418718e+00
  -1.735113e+00  -1.403092e+00
  -1.656618e+00  -1.333984e+00
  -1.651814e+00  -1.337068e+00
  -1.612878e+00  -1.278978e+00
  -1.751227e+00  -1.222852e+00
  -1.731469e+00  -1.349066e+00
  -1.849589e+00  -1.276527e+00
  -2.016888e+00  -1.519861e+00
  -1.894331e+00  -1.658835e+00
  -1.887545e+00  -1.771755e+00
  -1.660899e+00  -1.779467e+00
  -1.474709e+00  -1.898531e+00
  -1.346984e+00  -1.991883e+00
  -1.031284e+00  -1.787781e+00
  -9.061082e-01  -1.497736e+00
  -7.921061e-01  -1.380929e+00
  -7.062590e-01  -1.149126e+00
  -9.823810e-01  -8.285813e-01
  -1.098703e+00  -6.969931e-01
  -1.172399e+00  -3.822913e-01
  -1.446533e+00  -3.947592e-01
  -1.859578e+00  -5.271247e-01
  -2.045207e+00  -7.033367e-01
  -2.102768e+00  -8.958343e-01
  -2.206678e+00  -1.153735e+00
  -2.190205e+00  -1.488180e+00
  -2.000615e+00  -1.648055e+00
  -1.941981e+00  -1.818830e+00
  -1.565235e+00  -1.998988e+00
  -1.221878e+00  -2.013512e+00
  -1.136859e+00  -1.809659e+00
  -9.315639e-01  -1.787905e+00
  -6.874651e-01  -1.489623e+00
  -7.832246e-01  -1.295114e+00
  -8.106136e-01  -1.106820e+00
  -8.208821e-01  -9.700041e-01
  -1.030950e+00  -9.321179e-01
  -1.066493e+00  -8.965275e-01
  -1.082246e+00  -9.928486e-01
  -1.182106e+00  -9.467378e-01
  -1.150136e+00  -1.089751e+00
  -1.090259e+00  -1.046018e+00
  -1.060502e+00  -9.445792e-01
  -9.020991e-01  -7.667309e-01
  -9.344898e-01  -6.419453e-01
  -9.540244e-01  -5.356169e-01
  -1.096440e+00  -3.842861e-01
  -1.249348e+00  -3.046350e-01
  -1.463420e+00  -2.738334e-01
  -1.757236e+00  -2.614063e-01
  -1.878320e+00  -3.351719e-01
  -2.035154e+00  -5.136058e-01
  -2.136904e+00  -7.600493e-01
  -2.225660e+00  -1.068449e+00
  -2.149045e+00  -1.230427e+00
  -1.982302e+00  -1.476862e+00
  -1.843951e+00  -1.661770e+00
  -1.522757e+00  -1.693571e+00
  -1.335589e+00  -1.698808e+00
  -1.053126e+00  -1.517218e+00
  -9.246894e-01  -1.333091e+00
  -7.979446e-01  -1.238020e+00
  -8.272602e-01  -1.055449e+00
  -8.516386e-01  -8.516919e-01
  -1.127136e+00  -7.559874e-01
  -1.218862e+00  -6.423969e-01
  -1.382739e+00  -5.533380e-01
  -1.489835e+00  -6.942526e-01
  -1.426065e+00  -8.495782e-01
  -1.528131e+00  -8.894783e-01
  -1.587257e+00  -9.245727e-01
  -1.437883e+00  -1.040659e+00
  -1.250608e+00  -1.096783e+00
  -1.172703e+00  -9.945768e-01
  -1.264546e+00  -9.170717e-01
  -1.258067e+00  -8.403154e-01
  -1.306459e+00  -7.983381e-01
  -1.372121e+00  -9.215232e-01
  -1.495704e+00  -8.684454e-01
  -1.533168e+00  -7.728365e-01
  -1.619225e+00  -8.996229e-01
  -1.616153e+00  -1.087134e+00
  -1.573888e+00  -1.127417e+00
  -1.487775e+00  -1.253193e+00
  -1.488929e+00  -1.323931e+00
  -1.201748e+00  -1.309126e+00
  -1.041589e+00  -1.271306e+00
  -9.224786e-01  -1.240692e+00
  -7.489112e-01  -9.448655e-01
  -6.612823e-01  -7.592598e-01
  -7.062607e-01  -6.928452e-01
  -8.261745e-01  -4.743644e-01
  -9.376513e-01  -2.819445e-01
  -1.166677e+00  -1.323868e-01
  -1.360375e+00  -1.584374e-01
  -1.558455e+00  -2.058873e-01
  -1.707550e+00  -2.480432e-01
  -1.833193e+00  -4.302243e-01
  -1.880783e+00  -5.620791e-01
  -1.963176e+00  -8.048682e-01
  -1.809059e+00  -8.940675e-01
  -1.716071e+00  -9.585044e-01
  -1.572107e+00  -1.024377e+00
  -1.502486e+00  -1.148055e+00
  -1.362017e+00  -9.621462e-01
  -1.300720e+00  -9.153688e-01
  -1.365698e+00  -8.619481e-01
  -1.387999e+00  -7.426739e-01
  -1.365464e+00  -6.761968e-01
  -1.458515e+00  -7.010909e-01
  -1.504333e+00  -6.793838e-01
  -1.651587e+00  -7.892045e-01
  -1.646131e+00  -8.719686e-01
  -1.590446e+00  -8.152503e-01
  -1.493987e+00  -9.847123e-01
  -1.429684e+00  -9.544760e-01
  -1.383169e+00  -9.426524e-01
  -1.324356e+00  -9.092123e-01
  -1.242760e+00  -8.715571e-01
  -1.239138e+00  -6.897051e-01
  -1.285120e+00  -7.185182e-01
  -1.466276e+00  -5.821050e-01
  -1.534307e+00  -5.917909e-01
  -1.639629e+00  -6.139508e-01
  -1.679937e+00  -8.197149e-01
  -1.747706e+00  -8.920474e-01
  -1.777347e+00  -1.032862e+00
  -1.694569e+00  -1.188648e+00
  -1.567159e+00  -1.224581e+00
  -1.388578e+00  -1.281677e+00
  -1.138871e+00  -1.326778e+00
  -1.133306e+00  -1.188763e+00
  -1.054928e+00  -1.025569e+00
  -8.776954e-01  -8.591011e-01
  -9.535248e-01  -6.946899e-01
  -9.756260e-01  -5.154974e-01
  -1.128510e+00  -2.995893e-01
  -1.257952e+00  -3.768154e-01
  -1.489681e+00  -4.219160e-01
  -1.575322e+00  -3.653597e-01
  -1.650074e+00  -5.218752e-01
  -1.668439e+00  -6.509750e-01
  -1.724258e+00  -8.705036e-01
  -1.669588e+00  -8.175293e-01
