 $SEQPAR
 ECHOT = 40.0
 HZPPPM = 127.64584959999999
 SEQ = 'PRESS'
 $END
 $NMID
 FMTDAT = '(2E15.6)'
 VOLUME = 8.000000000000002
 $END
   9.720686e+02  -5.879119e+00
   9.695102e+02  -7.825849e+00
   9.664726e+02  -4.052903e+00
   9.632309e+02  -3.947362e+00
   9.592152e+02  -4.511563e+00
   9.558510e+02  -1.663119e+00
   9.525275e+02   3.526183e+00
   9.494808e+02   8.963896e+00
   9.473595e+02   9.480955e+00
   9.450487e+02   1.606033e+01
   9.421239e+02   3.070584e+01
   9.400802e+02   3.600771e+01
   9.383317e+02   3.592877e+01
   9.358578e+02   4.249467e+01
   9.332263e+02   5.059731e+01
   9.305256e+02   5.608555e+01
   9.277023e+02   5.933318e+01
   9.246881e+02   6.659236e+01
   9.216038e+02   7.477717e+01
   9.190034e+02   7.767138e+01
   9.162058e+02   7.960787e+01
   9.131128e+02   8.404299e+01
   9.101690e+02   8.732344e+01
   9.076931e+02   9.359283e+01
   9.050101e+02   9.848635e+01
   9.023856e+02   1.014831e+02
   8.998365e+02   1.088346e+02
   8.969377e+02   1.155661e+02
   8.945395e+02   1.189209e+02
   8.921311e+02   1.238112e+02
   8.889139e+02   1.275862e+02
   8.858506e+02   1.320020e+02
   8.822311e+02   1.375756e+02
   8.788917e+02   1.413465e+02
   8.751814e+02   1.456458e+02
   8.715580e+02   1.508554e+02
   8.676631e+02   1.559765e+02
   8.639533e+02   1.600481e+02
   8.615927e+02   1.621161e+02
   8.587751e+02   1.652198e+02
   8.554471e+02   1.712888e+02
   8.525181e+02   1.764956e+02
   8.500226e+02   1.789665e+02
   8.471816e+02   1.825775e+02
   8.432345e+02   1.890472e+02
   8.401872e+02   1.942404e+02
   8.375106e+02   1.970626e+02
   8.338095e+02   2.012911e+02
   8.295040e+02   2.071907e+02
   8.254790e+02   2.123583e+02
   8.219537e+02   2.147135e+02
   8.186147e+02   2.162746e+02
   8.139724e+02   2.218540e+02
   8.100096e+02   2.262746e+02
   8.073746e+02   2.269211e+02
   8.041282e+02   2.302552e+02
   8.002430e+02   2.354664e+02
   7.968927e+02   2.384639e+02
   7.939903e+02   2.416131e+02
   7.902537e+02   2.452789e+02
   7.861124e+02   2.503507e+02
   7.821213e+02   2.536641e+02
   7.789098e+02   2.548740e+02
   7.749449e+02   2.574547e+02
   7.703900e+02   2.615576e+02
   7.667342e+02   2.643855e+02
   7.638920e+02   2.655980e+02
   7.605755e+02   2.685163e+02
   7.568149e+02   2.728693e+02
   7.538957e+02   2.752020e+02
   7.511831e+02   2.767572e+02
   7.476061e+02   2.810139e+02
   7.434304e+02   2.856255e+02
   7.397332e+02   2.883588e+02
   7.365500e+02   2.894569e+02
   7.329087e+02   2.913568e+02
   7.280505e+02   2.952130e+02
   7.242363e+02   2.974713e+02
   7.210183e+02   2.984905e+02
   7.170917e+02   3.009439e+02
   7.134022e+02   3.040418e+02
   7.096090e+02   3.068837e+02
   7.061331e+02   3.085555e+02
   7.029091e+02   3.096906e+02
   6.992719e+02   3.122705e+02
   6.952288e+02   3.154662e+02
   6.922631e+02   3.167022e+02
   6.888586e+02   3.182298e+02
   6.853859e+02   3.207156e+02
   6.817072e+02   3.233598e+02
   6.782243e+02   3.256386e+02
   6.742216e+02   3.272120e+02
   6.707184e+02   3.295761e+02
   6.670107e+02   3.322666e+02
   6.628775e+02   3.333256e+02
   6.599289e+02   3.341724e+02
   6.562027e+02   3.358276e+02
   6.521068e+02   3.386841e+02
   6.491261e+02   3.399173e+02
   6.462468e+02   3.406332e+02
   6.430453e+02   3.429243e+02
   6.394344e+02   3.455472e+02
   6.361195e+02   3.472925e+02
   6.326198e+02   3.490798e+02
   6.286166e+02   3.508035e+02
   6.243806e+02   3.533126e+02
   6.203428e+02   3.550559e+02
   6.167562e+02   3.561979e+02
   6.133149e+02   3.567696e+02
   6.096056e+02   3.579711e+02
   6.062240e+02   3.595225e+02
   6.026739e+02   3.605548e+02
   5.994819e+02   3.618906e+02
   5.963070e+02   3.631534e+02
   5.926868e+02   3.650577e+02
   5.891413e+02   3.667994e+02
   5.860425e+02   3.675675e+02
   5.824256e+02   3.694438e+02
   5.790021e+02   3.705594e+02
   5.749825e+02   3.722813e+02
   5.711860e+02   3.739113e+02
   5.676265e+02   3.747121e+02
   5.637296e+02   3.755056e+02
   5.599094e+02   3.768506e+02
   5.566104e+02   3.772648e+02
   5.533808e+02   3.777313e+02
   5.497131e+02   3.789223e+02
   5.463247e+02   3.796520e+02
   5.435003e+02   3.803992e+02
   5.407342e+02   3.810575e+02
   5.374905e+02   3.822316e+02
   5.342919e+02   3.833346e+02
   5.311589e+02   3.845223e+02
   5.280060e+02   3.852171e+02
   5.243327e+02   3.861541e+02
   5.205907e+02   3.875520e+02
   5.171236e+02   3.880761e+02
   5.140802e+02   3.882862e+02
   5.102785e+02   3.895235e+02
   5.072909e+02   3.896420e+02
   5.043760e+02   3.898888e+02
   5.010588e+02   3.908857e+02
   4.980001e+02   3.915329e+02
   4.946610e+02   3.923884e+02
   4.914283e+02   3.931435e+02
   4.883865e+02   3.939379e+02
   4.848398e+02   3.947235e+02
   4.816706e+02   3.951589e+02
   4.783492e+02   3.958395e+02
   4.748117e+02   3.962092e+02
   4.716842e+02   3.964081e+02
   4.687377e+02   3.967163e+02
   4.651002e+02   3.973322e+02
   4.618453e+02   3.973163e+02
   4.588993e+02   3.975424e+02
   4.558576e+02   3.978512e+02
   4.528079e+02   3.979229e+02
   4.507358e+02   3.978883e+02
   4.474725e+02   3.985074e+02
   4.446303e+02   3.989312e+02
   4.417590e+02   3.996478e+02
   4.384864e+02   4.004469e+02
   4.356294e+02   4.011748e+02
   4.328391e+02   4.013248e+02
   4.294836e+02   4.020800e+02
   4.257081e+02   4.027375e+02
   4.225389e+02   4.027757e+02
   4.191242e+02   4.027689e+02
   4.161392e+02   4.027491e+02
   4.130158e+02   4.024184e+02
   4.102015e+02   4.022033e+02
   4.075739e+02   4.020751e+02
   4.046719e+02   4.019269e+02
   4.023190e+02   4.020270e+02
   3.995946e+02   4.023212e+02
   3.967329e+02   4.025376e+02
   3.935727e+02   4.025233e+02
   3.904529e+02   4.026821e+02
   3.875765e+02   4.027414e+02
   3.844463e+02   4.026304e+02
   3.816377e+02   4.024204e+02
   3.789454e+02   4.024286e+02
   3.761290e+02   4.019791e+02
   3.736222e+02   4.018422e+02
   3.708535e+02   4.016808e+02
   3.681102e+02   4.016739e+02
   3.654409e+02   4.019470e+02
   3.631099e+02   4.020133e+02
   3.604668e+02   4.021769e+02
   3.574972e+02   4.021244e+02
   3.545713e+02   4.021919e+02
   3.520358e+02   4.019902e+02
   3.494179e+02   4.017549e+02
   3.462992e+02   4.015868e+02
   3.432358e+02   4.014563e+02
   3.404552e+02   4.007947e+02
   3.376632e+02   4.001037e+02
   3.348247e+02   4.002630e+02
   3.321313e+02   3.995871e+02
   3.295795e+02   3.991847e+02
   3.273836e+02   3.985032e+02
   3.246737e+02   3.979466e+02
   3.222365e+02   3.980039e+02
   3.201184e+02   3.980035e+02
   3.177079e+02   3.981184e+02
   3.154543e+02   3.979386e+02
   3.124156e+02   3.980289e+02
   3.097036e+02   3.979095e+02
   3.068749e+02   3.976591e+02
   3.037169e+02   3.974375e+02
   3.013217e+02   3.970981e+02
   2.988189e+02   3.968936e+02
   2.959534e+02   3.963132e+02
   2.932008e+02   3.961335e+02
   2.905716e+02   3.959371e+02
   2.883206e+02   3.957281e+02
   2.861377e+02   3.951554e+02
   2.833086e+02   3.946019e+02
   2.808787e+02   3.945934e+02
   2.782367e+02   3.941179e+02
   2.755430e+02   3.938508e+02
   2.725131e+02   3.935502e+02
   2.693987e+02   3.933838e+02
   2.668167e+02   3.929000e+02
   2.644010e+02   3.919848e+02
   2.620848e+02   3.912922e+02
   2.590639e+02   3.903143e+02
   2.567657e+02   3.897195e+02
   2.547642e+02   3.891590e+02
   2.524520e+02   3.885692e+02
   2.503645e+02   3.877910e+02
   2.480433e+02   3.875375e+02
   2.456366e+02   3.874307e+02
   2.433409e+02   3.870912e+02
   2.409885e+02   3.864996e+02
   2.384167e+02   3.863935e+02
   2.357588e+02   3.859403e+02
   2.336966e+02   3.853783e+02
   2.309120e+02   3.849285e+02
   2.282830e+02   3.844652e+02
   2.260019e+02   3.834085e+02
   2.233627e+02   3.828880e+02
   2.212254e+02   3.825157e+02
   2.188591e+02   3.815363e+02
   2.167287e+02   3.809537e+02
   2.143901e+02   3.803798e+02
   2.118647e+02   3.797859e+02
   2.099610e+02   3.790730e+02
   2.076683e+02   3.786569e+02
   2.050493e+02   3.779260e+02
   2.029238e+02   3.773920e+02
   2.007312e+02   3.773342e+02
   1.981378e+02   3.764742e+02
   1.958698e+02   3.754324e+02
   1.936496e+02   3.751893e+02
   1.914271e+02   3.744076e+02
   1.892503e+02   3.740145e+02
   1.871498e+02   3.730950e+02
   1.847695e+02   3.722342e+02
   1.826838e+02   3.716778e+02
   1.812348e+02   3.710958e+02
   1.787823e+02   3.708677e+02
   1.765999e+02   3.702249e+02
   1.745237e+02   3.697086e+02
   1.721955e+02   3.690515e+02
   1.697702e+02   3.686680e+02
   1.675969e+02   3.679055e+02
   1.650183e+02   3.674361e+02
   1.625635e+02   3.664410e+02
   1.605962e+02   3.656920e+02
   1.584816e+02   3.648130e+02
   1.560057e+02   3.638267e+02
   1.541097e+02   3.628298e+02
   1.522647e+02   3.618748e+02
   1.499883e+02   3.608965e+02
   1.482036e+02   3.601997e+02
   1.462354e+02   3.593335e+02
   1.441636e+02   3.586520e+02
   1.422517e+02   3.582391e+02
   1.401574e+02   3.570000e+02
   1.381864e+02   3.563587e+02
   1.359557e+02   3.557113e+02
   1.339271e+02   3.547233e+02
   1.321404e+02   3.540943e+02
   1.302849e+02   3.531026e+02
   1.283201e+02   3.518029e+02
   1.263589e+02   3.509084e+02
   1.242119e+02   3.500379e+02
   1.227772e+02   3.490477e+02
   1.208910e+02   3.479604e+02
   1.191381e+02   3.474325e+02
   1.174430e+02   3.463447e+02
   1.155348e+02   3.458905e+02
   1.138623e+02   3.447868e+02
   1.116665e+02   3.436281e+02
   1.096478e+02   3.432374e+02
   1.079329e+02   3.418427e+02
   1.061992e+02   3.408963e+02
   1.043193e+02   3.398096e+02
   1.026526e+02   3.388244e+02
   1.012690e+02   3.377371e+02
   9.965633e+01   3.368162e+02
   9.828281e+01   3.355626e+02
   9.686348e+01   3.346830e+02
   9.501000e+01   3.336843e+02
   9.379354e+01   3.333333e+02
   9.219337e+01   3.324422e+02
   9.017112e+01   3.312715e+02
   8.855505e+01   3.303489e+02
   8.701290e+01   3.296023e+02
   8.536713e+01   3.285619e+02
   8.350386e+01   3.274322e+02
   8.200950e+01   3.265831e+02
   8.027804e+01   3.253126e+02
   7.884340e+01   3.238687e+02
   7.753593e+01   3.231307e+02
   7.593091e+01   3.219903e+02
   7.455614e+01   3.208025e+02
