 LCModel (Version 6.3-1N) Copyright: S.W. Provencher.          Ref.: Magn. Reson. Med. 30:672-679 (1993).                
  
 36 lines in following concentration table = NCONC+1
    Conc.  %SD /Cr+PCr  Metabolite                                         
    0.000 999%   0.000 Ala                                                 
    0.000 999%   0.000 Asp                                                 
    2.245  14%   0.331 Cr                                                  
    4.537   8%   0.669 PCr                                                 
    0.693  51%   0.102 GABA                                                
    1.248  22%   0.184 Glc                                                 
    2.747  19%   0.405 Gln                                                 
    9.320   5%   1.374 Glu                                                 
    1.742   3%   0.257 GPC                                                 
    0.000 999%   0.000 PCh                                                 
    1.655  11%   0.244 GSH                                                 
    5.544   3%   0.817 Ins                                                 
    1.545  18%   0.228 Lac                                                 
    8.962   2%   1.321 NAA                                                 
    0.886  24%   0.131 NAAG                                                
 3.38E-02 130% 5.0E-03 Scyllo                                              
    1.195  18%   0.176 Tau                                                 
    1.940  10%   0.286 -CrCH2                                              
    1.742   3%   0.257 GPC+PCh                                             
    9.849   2%   1.452 NAA+NAAG                                            
    6.782   2%   1.000 Cr+PCr                                              
   12.067   4%   1.779 Glu+Gln                                             
    1.883  65%   0.278 Lip13a                                              
    0.000 999%   0.000 Lip13b                                              
    0.545  97% 8.0E-02 Lip09                                               
    5.158  12%   0.761 MM09                                                
 8.74E-02 386% 1.3E-02 Lip20                                               
    6.854  13%   1.011 MM20                                                
    1.645  37%   0.243 MM12                                                
    2.237  30%   0.330 MM14                                                
    0.000 999%   0.000 MM17                                                
    1.883  65%   0.278 Lip13a+Lip13b                                       
    5.766  13%   0.850 MM14+Lip13a+Lip13b+MM12                             
    5.703   7%   0.841 MM09+Lip09                                          
    6.941  12%   1.023 MM20+Lip20                                          
   6 lines in following misc. output table
  FWHM = 0.038 ppm    S/N =  26                                            
  Data shift = 0.000 ppm                                                   
  Ph:  -6 deg       3.5 deg/ppm                                            
  alphaB,S = 1.2E+00,   1.7E+02                                            
   28 spline knots.   Ns = 8(1)                                            
  (12) 3 infls.   ( 9) 1 extrs.                                            
  796 points on ppm-axis = NY
      4.000000     3.995219     3.990437     3.985656     3.980874     3.976093     3.971311     3.966530     3.961748     3.956967
      3.952185     3.947404     3.942622     3.937841     3.933059     3.928278     3.923496     3.918715     3.913933     3.909152
      3.904370     3.899589     3.894807     3.890026     3.885244     3.880463     3.875681     3.870900     3.866118     3.861337
      3.856555     3.851774     3.846992     3.842211     3.837430     3.832648     3.827867     3.823085     3.818304     3.813522
      3.808741     3.803959     3.799178     3.794396     3.789615     3.784833     3.780052     3.775270     3.770489     3.765707
      3.760926     3.756144     3.751363     3.746581     3.741800     3.737018     3.732237     3.727455     3.722674     3.717892
      3.713111     3.708329     3.703548     3.698766     3.693985     3.689204     3.684422     3.679641     3.674859     3.670078
      3.665296     3.660515     3.655733     3.650952     3.646170     3.641389     3.636607     3.631826     3.627044     3.622263
      3.617481     3.612700     3.607918     3.603137     3.598355     3.593574     3.588792     3.584011     3.579229     3.574448
      3.569666     3.564885     3.560103     3.555322     3.550540     3.545759     3.540977     3.536196     3.531415     3.526633
      3.521852     3.517070     3.512289     3.507507     3.502726     3.497944     3.493163     3.488381     3.483600     3.478818
      3.474037     3.469255     3.464474     3.459692     3.454911     3.450129     3.445348     3.440566     3.435785     3.431003
      3.426222     3.421440     3.416659     3.411877     3.407096     3.402314     3.397533     3.392751     3.387970     3.383188
      3.378407     3.373626     3.368844     3.364063     3.359281     3.354500     3.349718     3.344937     3.340155     3.335374
      3.330592     3.325811     3.321029     3.316248     3.311466     3.306685     3.301903     3.297122     3.292340     3.287559
      3.282777     3.277996     3.273214     3.268433     3.263651     3.258870     3.254088     3.249307     3.244525     3.239744
      3.234962     3.230181     3.225399     3.220618     3.215837     3.211055     3.206274     3.201492     3.196711     3.191929
      3.187148     3.182366     3.177585     3.172803     3.168022     3.163240     3.158459     3.153677     3.148896     3.144114
      3.139333     3.134551     3.129770     3.124988     3.120207     3.115425     3.110644     3.105862     3.101081     3.096299
      3.091518     3.086736     3.081955     3.077173     3.072392     3.067611     3.062829     3.058048     3.053266     3.048485
      3.043703     3.038922     3.034140     3.029359     3.024577     3.019796     3.015014     3.010233     3.005451     3.000670
      2.995888     2.991107     2.986325     2.981544     2.976762     2.971981     2.967199     2.962418     2.957636     2.952855
      2.948073     2.943292     2.938510     2.933729     2.928947     2.924166     2.919384     2.914603     2.909822     2.905040
      2.900259     2.895477     2.890696     2.885914     2.881133     2.876351     2.871570     2.866788     2.862007     2.857225
      2.852444     2.847662     2.842881     2.838099     2.833318     2.828536     2.823755     2.818973     2.814192     2.809410
      2.804629     2.799847     2.795066     2.790284     2.785503     2.780721     2.775940     2.771158     2.766377     2.761595
      2.756814     2.752033     2.747251     2.742470     2.737688     2.732907     2.728125     2.723344     2.718562     2.713781
      2.708999     2.704218     2.699436     2.694655     2.689873     2.685092     2.680310     2.675529     2.670747     2.665966
      2.661184     2.656403     2.651621     2.646840     2.642058     2.637277     2.632495     2.627714     2.622932     2.618151
      2.613369     2.608588     2.603806     2.599025     2.594244     2.589462     2.584681     2.579899     2.575118     2.570336
      2.565555     2.560773     2.555992     2.551210     2.546429     2.541647     2.536866     2.532084     2.527303     2.522521
      2.517740     2.512958     2.508177     2.503395     2.498614     2.493832     2.489051     2.484269     2.479488     2.474706
      2.469925     2.465143     2.460362     2.455580     2.450799     2.446018     2.441236     2.436455     2.431673     2.426892
      2.422110     2.417329     2.412547     2.407766     2.402984     2.398203     2.393421     2.388640     2.383858     2.379077
      2.374295     2.369514     2.364732     2.359951     2.355169     2.350388     2.345606     2.340825     2.336043     2.331262
      2.326480     2.321699     2.316917     2.312136     2.307354     2.302573     2.297791     2.293010     2.288229     2.283447
      2.278666     2.273884     2.269103     2.264321     2.259540     2.254758     2.249977     2.245195     2.240414     2.235632
      2.230851     2.226069     2.221288     2.216506     2.211725     2.206943     2.202162     2.197380     2.192599     2.187817
      2.183036     2.178254     2.173473     2.168691     2.163910     2.159128     2.154347     2.149565     2.144784     2.140002
      2.135221     2.130440     2.125658     2.120877     2.116095     2.111314     2.106532     2.101751     2.096969     2.092188
      2.087406     2.082625     2.077843     2.073062     2.068280     2.063499     2.058717     2.053936     2.049154     2.044373
      2.039591     2.034810     2.030028     2.025247     2.020465     2.015684     2.010902     2.006121     2.001339     1.996558
      1.991776     1.986995     1.982213     1.977431     1.972650     1.967868     1.963087     1.958305     1.953523     1.948742
      1.943960     1.939179     1.934397     1.929615     1.924834     1.920052     1.915271     1.910489     1.905707     1.900926
      1.896144     1.891363     1.886581     1.881799     1.877018     1.872236     1.867455     1.862673     1.857891     1.853110
      1.848328     1.843547     1.838765     1.833983     1.829202     1.824420     1.819638     1.814857     1.810075     1.805294
      1.800512     1.795730     1.790949     1.786167     1.781386     1.776604     1.771822     1.767041     1.762259     1.757478
      1.752696     1.747914     1.743133     1.738351     1.733570     1.728788     1.724006     1.719225     1.714443     1.709662
      1.704880     1.700098     1.695317     1.690535     1.685754     1.680972     1.676190     1.671409     1.666627     1.661846
      1.657064     1.652282     1.647501     1.642719     1.637938     1.633156     1.628374     1.623593     1.618811     1.614030
      1.609248     1.604466     1.599685     1.594903     1.590122     1.585340     1.580558     1.575777     1.570995     1.566213
      1.561432     1.556650     1.551869     1.547087     1.542305     1.537524     1.532742     1.527961     1.523179     1.518397
      1.513616     1.508834     1.504053     1.499271     1.494489     1.489708     1.484926     1.480145     1.475363     1.470581
      1.465800     1.461018     1.456237     1.451455     1.446673     1.441892     1.437110     1.432329     1.427547     1.422765
      1.417984     1.413202     1.408421     1.403639     1.398857     1.394076     1.389294     1.384513     1.379731     1.374949
      1.370168     1.365386     1.360605     1.355823     1.351041     1.346260     1.341478     1.336697     1.331915     1.327133
      1.322352     1.317570     1.312788     1.308007     1.303225     1.298444     1.293662     1.288880     1.284099     1.279317
      1.274536     1.269754     1.264972     1.260191     1.255409     1.250628     1.245846     1.241064     1.236283     1.231501
      1.226720     1.221938     1.217156     1.212375     1.207593     1.202812     1.198030     1.193248     1.188467     1.183685
      1.178904     1.174122     1.169340     1.164559     1.159777     1.154996     1.150214     1.145432     1.140651     1.135869
      1.131088     1.126306     1.121524     1.116743     1.111961     1.107180     1.102398     1.097616     1.092835     1.088053
      1.083272     1.078490     1.073708     1.068927     1.064145     1.059363     1.054582     1.049800     1.045019     1.040237
      1.035455     1.030674     1.025892     1.021111     1.016329     1.011547     1.006766     1.001984     0.997203     0.992421
      0.987639     0.982858     0.978076     0.973295     0.968513     0.963731     0.958950     0.954168     0.949387     0.944605
      0.939823     0.935042     0.930260     0.925479     0.920697     0.915915     0.911134     0.906352     0.901571     0.896789
      0.892007     0.887226     0.882444     0.877663     0.872881     0.868099     0.863318     0.858536     0.853755     0.848973
      0.844191     0.839410     0.834628     0.829847     0.825065     0.820283     0.815502     0.810720     0.805938     0.801157
      0.796375     0.791594     0.786812     0.782030     0.777249     0.772467     0.767686     0.762904     0.758122     0.753341
      0.748559     0.743778     0.738996     0.734214     0.729433     0.724651     0.719870     0.715088     0.710306     0.705525
      0.700743     0.695962     0.691180     0.686398     0.681617     0.676835     0.672054     0.667272     0.662490     0.657709
      0.652927     0.648146     0.643364     0.638582     0.633801     0.629019     0.624238     0.619456     0.614674     0.609893
      0.605111     0.600330     0.595548     0.590766     0.585985     0.581203     0.576421     0.571640     0.566858     0.562077
      0.557295     0.552513     0.547732     0.542950     0.538169     0.533387     0.528605     0.523824     0.519042     0.514261
      0.509479     0.504697     0.499916     0.495134     0.490353     0.485571     0.480789     0.476008     0.471226     0.466445
      0.461663     0.456881     0.452100     0.447318     0.442537     0.437755     0.432973     0.428192     0.423410     0.418629
      0.413847     0.409065     0.404284     0.399502     0.394721     0.389939     0.385157     0.380376     0.375594     0.370813
      0.366031     0.361249     0.356468     0.351686     0.346905     0.342123     0.337341     0.332560     0.327778     0.322996
      0.318215     0.313433     0.308652     0.303870     0.299088     0.294307     0.289525     0.284744     0.279962     0.275180
      0.270399     0.265617     0.260836     0.256054     0.251272     0.246491     0.241709     0.236928     0.232146     0.227364
      0.222583     0.217801     0.213020     0.208238     0.203456     0.198675
 NY phased data points follow
   2.10964E+05  7.05958E+04  1.38055E+05  1.60817E+05  1.24137E+05  2.00207E+05  1.81223E+05  4.06054E+05  3.37799E+05  5.18483E+05
   5.94726E+05  5.85335E+05  8.59457E+05  8.48229E+05  1.10797E+06  1.06231E+06  1.23396E+06  1.17233E+06  1.29748E+06  1.10590E+06
   1.10767E+06  9.36593E+05  9.56614E+05  8.01402E+05  6.72661E+05  5.98406E+05  5.20048E+05  5.17084E+05  4.55382E+05  3.91332E+05
   4.81267E+05  2.90362E+05  2.97767E+05  3.33856E+05  3.30416E+05  3.57914E+05  4.31096E+05  4.86939E+05  4.77811E+05  5.63886E+05
   6.13650E+05  6.48092E+05  5.84922E+05  6.69696E+05  6.07614E+05  7.50850E+05  6.64461E+05  6.78111E+05  6.90392E+05  7.98339E+05
   9.37433E+05  8.19987E+05  9.16550E+05  9.08064E+05  7.63145E+05  7.65862E+05  7.02264E+05  5.10952E+05  5.27735E+05  6.40929E+05
   6.47744E+05  5.50807E+05  6.24420E+05  5.37529E+05  5.87467E+05  4.86135E+05  4.40869E+05  4.92991E+05  5.23897E+05  4.11944E+05
   5.28542E+05  6.21172E+05  7.13356E+05  9.11535E+05  9.22662E+05  9.56722E+05  1.00657E+06  1.04728E+06  7.48898E+05  6.76675E+05
   6.53027E+05  5.09604E+05  3.83927E+05  4.68532E+05  3.99224E+05  4.43920E+05  4.66604E+05  4.48736E+05  6.03706E+05  8.23714E+05
   9.04449E+05  1.08635E+06  1.09040E+06  1.18581E+06  1.22678E+06  1.11132E+06  9.17286E+05  8.42872E+05  7.09074E+05  6.46296E+05
   4.87189E+05  4.68911E+05  3.92767E+05  4.13676E+05  2.72744E+05  3.04341E+05  2.93572E+05  4.35093E+05  3.48270E+05  4.52902E+05
   4.33921E+05  3.88132E+05  4.44802E+05  4.52455E+05  4.61431E+05  2.38108E+05  3.05648E+05  4.16787E+05  3.62996E+05  3.32691E+05
   3.40887E+05  3.39276E+05  3.58639E+05  2.71481E+05  3.22792E+05  1.25271E+05  1.46525E+05  2.34035E+05  1.58674E+05  1.63434E+05
   2.83450E+05  2.37635E+05  3.09020E+05  2.56372E+05  3.19298E+05  2.41181E+05  2.25070E+05  2.28474E+05  1.87870E+05  2.17270E+05
   1.28732E+05  9.37119E+04  2.43420E+04  1.19696E+05  1.16171E+05  1.04298E+05  1.79238E+05  2.30853E+05  2.44907E+05  3.46249E+05
   3.12289E+05  3.21874E+05  4.66307E+05  4.01186E+05  4.42823E+05  4.80426E+05  4.37656E+05  5.04762E+05  5.79683E+05  6.25380E+05
   8.67851E+05  1.12087E+06  1.24113E+06  1.55082E+06  1.71944E+06  1.82713E+06  1.83251E+06  1.87507E+06  1.50504E+06  1.18627E+06
   9.36709E+05  7.99092E+05  6.77620E+05  6.66731E+05  5.74278E+05  4.25468E+05  4.02859E+05  3.13660E+05  3.18618E+05  3.13226E+05
   2.84151E+05  2.13334E+05  2.18945E+05  2.68797E+05  2.23816E+05  1.57449E+05  2.64980E+05  1.99808E+05  2.27673E+05  2.33801E+05
   1.86915E+05  2.61382E+05  3.27186E+05  3.27097E+05  3.12780E+05  3.51865E+05  5.93271E+05  7.54310E+05  8.45813E+05  1.31119E+06
   1.60973E+06  2.06267E+06  2.26096E+06  2.48240E+06  2.42204E+06  2.40985E+06  2.17846E+06  1.72493E+06  1.39120E+06  1.13143E+06
   9.76620E+05  8.25550E+05  6.83692E+05  6.50329E+05  5.32473E+05  3.47677E+05  4.07351E+05  3.24789E+05  2.72342E+05  2.93622E+05
   3.59658E+05  2.04242E+05  2.52628E+05  2.55302E+05  3.16156E+05  2.76813E+05  2.52219E+05  1.61241E+05  2.67377E+05  2.18440E+05
   2.10546E+05  2.07602E+05  1.93625E+05  1.25251E+05  2.01053E+05  1.64229E+05  1.09722E+05  1.59752E+05  8.39571E+04  1.90420E+03
   2.20629E+05  1.24245E+05  9.23364E+04  4.18915E+04  7.34770E+04  1.02318E+05  8.32515E+04  7.02932E+04  7.09575E+04  1.03850E+05
   1.47290E+05  1.93197E+05  1.68642E+05  1.12253E+05  1.86870E+05  2.01585E+05  2.21393E+05  1.54577E+05  1.69792E+05  1.92029E+05
   9.48091E+04  1.05408E+05  1.85204E+05  1.53354E+05  1.42629E+05  1.70194E+05  2.18413E+05  1.53697E+05  5.31069E+04  2.82157E+04
  -6.90974E+04 -7.05167E+03 -1.08203E+05 -5.55737E+03 -9.74832E+04 -1.50609E+04 -4.21796E+04  8.19114E+04 -1.05618E+05 -7.20307E+04
   2.41240E+04  1.12029E+05  3.35567E+04  5.62791E+04  1.17717E+05  3.93921E+04  1.19367E+05  5.77963E+04  1.69691E+05  2.07440E+05
   1.20916E+05  2.81858E+05  2.05299E+05  1.78471E+05  3.25634E+05  2.11969E+05  2.55480E+05  2.25116E+05  1.33569E+05  1.21409E+05
   1.77139E+05  6.13540E+04  7.18845E+04  1.17504E+05  9.83904E+04  4.19752E+04  1.40189E+05  2.11373E+05  1.47511E+05  2.36254E+05
   1.89726E+05  3.23142E+04  1.83655E+05  2.03735E+05  1.18554E+05  2.25873E+05  1.03407E+05  1.73990E+05  1.63995E+05  2.29677E+05
   3.07227E+05  3.34571E+05  4.31688E+05  4.05494E+05  3.99342E+05  2.80200E+05  4.96686E+05  5.70181E+05  4.31166E+05  4.07012E+05
   3.83694E+05  3.63151E+05  3.03186E+05  3.52590E+05  2.46037E+05  1.89848E+05  1.96638E+05  1.90688E+05  4.29216E+05  3.98942E+05
   6.18301E+05  6.60859E+05  8.92135E+05  1.01433E+06  8.99099E+05  1.06423E+06  8.76050E+05  7.16823E+05  7.05073E+05  4.86359E+05
   3.38434E+05  2.86262E+05  2.26477E+05  1.05749E+05  3.27911E+05  3.31628E+05  3.83499E+05  5.31350E+05  5.72162E+05  5.40866E+05
   6.91020E+05  5.84369E+05  5.94149E+05  6.40128E+05  4.26956E+05  5.47985E+05  4.99996E+05  4.34513E+05  4.88542E+05  5.22769E+05
   4.79895E+05  4.40521E+05  4.16577E+05  4.79380E+05  4.00137E+05  4.15070E+05  4.93670E+05  4.11844E+05  4.26702E+05  4.38691E+05
   3.77358E+05  4.61580E+05  3.58953E+05  4.21544E+05  4.16588E+05  4.35661E+05  2.99540E+05  2.65452E+05  4.05185E+05  3.12762E+05
   5.56886E+05  4.82204E+05  5.03627E+05  7.07400E+05  5.73365E+05  6.84687E+05  7.33096E+05  7.01329E+05  6.50117E+05  6.57583E+05
   7.20010E+05  8.11493E+05  7.63975E+05  7.25980E+05  8.67049E+05  8.88728E+05  1.03018E+06  1.02263E+06  1.20948E+06  1.44762E+06
   1.47985E+06  1.84196E+06  2.15745E+06  2.73472E+06  3.22088E+06  3.54794E+06  3.82080E+06  3.88011E+06  3.52917E+06  3.06509E+06
   2.43650E+06  1.78703E+06  1.34366E+06  1.29230E+06  1.10357E+06  9.02048E+05  7.03524E+05  5.68852E+05  5.71196E+05  4.17822E+05
   4.17080E+05  3.88600E+05  3.17104E+05  4.16802E+05  3.80310E+05  2.15800E+05  3.18232E+05  2.32026E+05  2.21357E+05  1.83459E+05
   1.82793E+05  2.45136E+05  2.76664E+05  2.05286E+05  1.80029E+05  2.50524E+05  1.29241E+05  2.56629E+04  2.01394E+05  1.77668E+05
   1.67791E+05  1.60476E+05  1.69644E+05  1.15158E+05  9.45562E+04  9.21559E+04  2.61010E+04  2.10584E+05  1.75996E+05  2.97049E+04
   7.20490E+04  4.46039E+03  1.07219E+05 -1.83444E+04  7.85201E+04  6.12142E+04  1.24106E+05  7.27596E+04 -6.40518E+04  4.45889E+04
  -6.48082E+04  6.46712E+04 -1.99691E+04 -1.64829E+04  2.34390E+04 -6.21448E+03 -4.98979E+04  6.20416E+04  2.41897E+04  1.63426E+05
  -9.34249E+03 -2.42549E+04  1.03922E+05  3.65033E+04  7.32533E+04 -6.51963E+04 -8.70469E+04  1.98510E+04  3.60168E+04  2.99149E+04
   7.87651E+04  2.76258E+04  1.63100E+05  6.33431E+03  1.77299E+04  4.20979E+04  1.49409E+05  8.78655E+04  5.09537E+04  4.31403E+04
   1.01773E+05 -9.15060E+03  4.31392E+04  1.00564E+05  8.57113E+04 -2.61354E+04  7.06616E+04  2.70547E+04  7.17392E+04 -8.37987E+04
   4.65967E+04 -4.65879E+04 -1.30443E+04  3.19004E+04 -5.42647E+04 -1.14704E+05 -3.97028E+04  4.66911E+04 -3.48841E+04  3.04381E+04
   7.22852E+04 -3.87520E+04  1.18177E+05  2.36444E+04  9.61622E+04  1.47776E+05  9.18311E+04  6.49072E+04  1.58344E+05  1.14733E+05
   1.14931E+05  1.04849E+05  6.12375E+04  7.18388E+04  1.53379E+05  9.39521E+04  1.50436E+05  1.32972E+05  1.64402E+05  1.41934E+05
   5.68281E+04  1.60929E+05  9.52190E+04  9.26044E+04  1.12383E+05  1.76640E+05  9.35579E+04  1.42372E+05  2.47307E+05  2.02732E+05
   4.09653E+05  3.78094E+05  3.98440E+05  3.67209E+05  3.88159E+05  3.93620E+05  3.34643E+05  2.95917E+05  2.66976E+05  2.07126E+05
   2.05530E+05  1.38944E+05  1.51599E+05  2.94849E+05  3.62198E+05  2.38085E+05  2.61059E+05  3.12543E+05  3.06825E+05  3.02268E+05
   3.73182E+05  2.66082E+05  2.54582E+05  3.08232E+05  3.40979E+05  2.77370E+05  2.11122E+05  2.12511E+05  1.95065E+05  2.17444E+05
   2.22593E+05  1.48536E+05  1.88533E+05  2.00280E+05  1.65707E+05  1.55281E+05  2.48515E+05  1.95034E+05  1.52228E+05  8.88478E+04
   1.29898E+05  1.13936E+05  1.11720E+05  8.44527E+04  1.16664E+05  9.50415E+04  9.99771E+04  1.59969E+05  5.76924E+04  1.31557E+05
   1.56209E+05  8.37473E+04  1.03700E+05  1.78175E+04  5.18303E+04  1.89925E+04  1.12696E+05  5.54869E+04  1.35655E+05  7.47277E+04
   1.64232E+05  1.08601E+05  1.73163E+05  1.39393E+05  9.60338E+04  1.67081E+05  1.30140E+05  1.14966E+05  1.93456E+05  2.44030E+05
   2.51882E+05  1.25234E+05  2.50652E+05  1.58279E+05  2.43748E+05  2.22449E+05  3.17724E+05  2.99545E+05  2.87912E+05  2.53275E+05
   3.02585E+05  2.52953E+05  1.78279E+05  2.60534E+05  3.24791E+05  2.64097E+05  2.89782E+05  1.50348E+05  3.29616E+05  3.80713E+05
   4.25220E+05  4.25691E+05  4.80744E+05  3.42714E+05  3.49134E+05  3.40099E+05  2.63907E+05  3.22746E+05  3.70336E+05  2.98753E+05
   3.68644E+05  4.17615E+05  4.18393E+05  3.68428E+05  3.47154E+05  3.52840E+05  3.65154E+05  1.05025E+05  2.08546E+05  1.65685E+05
   2.14727E+05  1.59059E+05  2.11811E+05  2.34891E+05  2.67854E+05  2.22958E+05  1.16567E+05  2.54650E+05  1.75023E+05  1.46379E+05
   1.30529E+05  1.86468E+05 -2.03060E+04  6.80881E+04  1.14192E+04  8.90261E+04 -4.28691E+04  9.89577E+04  1.39182E+05  1.81772E+04
   2.51637E+04  2.78670E+04  4.32633E+04  4.09752E+04 -5.08800E+03 -3.75962E+03  3.56304E+03 -6.27555E+04  1.51862E+05  1.39069E+05
   9.44901E+04  1.45990E+05  1.18335E+04  4.59299E+04 -1.89998E+04 -4.06303E+04  1.14423E+05  1.97996E+04  5.93964E+03  3.44526E+04
   5.71443E+04 -1.02456E+04  4.59755E+04  3.27794E+04 -2.99632E+04 -2.41593E+03 -3.33030E+04 -2.48941E+04  1.21723E+04  7.21744E+04
   5.15887E+04  8.99885E+04 -4.15582E+04  9.29132E+03 -2.63063E+04  4.54288E+03  1.26934E+05 -3.02260E+04  7.75425E+04  2.63542E+04
   8.77650E+04 -7.59738E+03  2.45317E+04 -5.67516E+03  3.98714E+04  3.36273E+04  2.98352E+04 -1.60724E+04  4.22559E+03  9.61588E+04
  -1.06913E+05 -1.94772E+04 -2.84780E+04  8.09734E+04 -9.40409E+03 -3.62071E+04 -4.55704E+04  2.40732E+04 -3.38856E+04 -1.16164E+05
   2.82033E+04  1.68911E+04 -8.16738E+04 -9.17695E+03  2.73150E+04  8.88169E+03 -5.13257E+03 -1.08751E+05  1.94087E+04 -1.01872E+05
  -3.57786E+04 -9.03423E+04  2.63884E+04 -7.55183E+04 -2.58688E+04  7.33252E+04 -8.33997E+03 -1.32190E+04  1.25894E+04  1.31414E+05
   6.61259E+04 -4.28518E+04  5.47989E+02 -3.11209E+04 -6.48154E+03 -1.46696E+05  2.15466E+04  8.26450E+04  4.69169E+04  3.30342E+04
  -2.34699E+04 -2.91214E+04  8.09507E+04 -5.88906E+02  1.15776E+05 -3.66241E+04  2.35090E+04 -1.21634E+05  5.25260E+04 -1.35405E+04
  -1.00383E+05  4.31326E+04  3.71275E+03  4.52812E+04 -1.32857E+04  3.83053E+04 -9.99564E+04 -6.48012E+04 -5.17588E+03 -5.90527E+04
   1.56945E+04 -4.27719E+04 -5.59781E+04 -3.40408E+03 -6.66313E+03 -1.61356E+04
 NY points of the fit to the data follow
   1.96816E+05  1.86865E+05  1.84021E+05  1.88194E+05  1.99219E+05  2.18699E+05  2.51729E+05  3.00706E+05  3.64045E+05  4.43057E+05
   5.42929E+05  6.65628E+05  8.03424E+05  9.37806E+05  1.05188E+06  1.13654E+06  1.18766E+06  1.20383E+06  1.18925E+06  1.15316E+06
   1.10243E+06  1.03284E+06  9.34668E+05  8.10358E+05  6.84030E+05  5.82262E+05  5.12326E+05  4.62396E+05  4.18469E+05  3.78938E+05
   3.52600E+05  3.43293E+05  3.47920E+05  3.59566E+05  3.76295E+05  4.01430E+05  4.35725E+05  4.74948E+05  5.12738E+05  5.42284E+05
   5.59775E+05  5.67333E+05  5.68980E+05  5.72197E+05  5.88380E+05  6.26931E+05  6.89945E+05  7.67247E+05  8.41598E+05  8.97611E+05
   9.24625E+05  9.15916E+05  8.72539E+05  8.02763E+05  7.24699E+05  6.62846E+05  6.35423E+05  6.41334E+05  6.65235E+05  6.89630E+05
   6.99206E+05  6.85095E+05  6.44775E+05  5.82255E+05  5.10913E+05  4.47673E+05  4.05644E+05  3.86587E+05  3.85107E+05  4.01860E+05
   4.40374E+05  4.97709E+05  5.69519E+05  6.50297E+05  7.31366E+05  7.99447E+05  8.40685E+05  8.43460E+05  8.03201E+05  7.24664E+05
   6.23789E+05  5.23530E+05  4.47182E+05  4.09482E+05  4.11443E+05  4.46307E+05  5.11785E+05  6.10811E+05  7.39899E+05  8.82286E+05
   1.01669E+06  1.12347E+06  1.18651E+06  1.19566E+06  1.15200E+06  1.06752E+06  9.60450E+05  8.47191E+05  7.36355E+05  6.31437E+05
   5.39950E+05  4.72181E+05  4.30675E+05  4.08234E+05  3.96417E+05  3.90622E+05  3.89881E+05  3.92372E+05  3.95357E+05  3.97200E+05
   3.97426E+05  3.96209E+05  3.94060E+05  3.90159E+05  3.83441E+05  3.74217E+05  3.64690E+05  3.57033E+05  3.51892E+05  3.46695E+05
   3.38748E+05  3.27473E+05  3.14104E+05  2.98772E+05  2.82010E+05  2.66094E+05  2.54915E+05  2.51573E+05  2.55721E+05  2.63639E+05
   2.70681E+05  2.74051E+05  2.73087E+05  2.66997E+05  2.56294E+05  2.42096E+05  2.26047E+05  2.08787E+05  1.89999E+05  1.70437E+05
   1.52616E+05  1.40079E+05  1.36247E+05  1.41702E+05  1.54541E+05  1.71838E+05  1.90452E+05  2.08938E+05  2.28074E+05  2.49471E+05
   2.74135E+05  3.01712E+05  3.29895E+05  3.53669E+05  3.69716E+05  3.82743E+05  4.09129E+05  4.65438E+05  5.56447E+05  6.85882E+05
   8.62995E+05  1.08823E+06  1.34072E+06  1.58286E+06  1.77188E+06  1.87017E+06  1.85370E+06  1.72170E+06  1.50477E+06  1.25890E+06
   1.03960E+06  8.70050E+05  7.35494E+05  6.11417E+05  4.97089E+05  4.07389E+05  3.44613E+05  2.99323E+05  2.64226E+05  2.36190E+05
   2.13334E+05  1.95462E+05  1.83336E+05  1.76045E+05  1.71545E+05  1.67724E+05  1.64057E+05  1.61701E+05  1.62387E+05  1.66332E+05
   1.73987E+05  1.86555E+05  2.05741E+05  2.37206E+05  2.95073E+05  3.93731E+05  5.36273E+05  7.27430E+05  9.76395E+05  1.28233E+06
   1.62792E+06  1.97651E+06  2.27650E+06  2.47103E+06  2.51418E+06  2.39023E+06  2.12439E+06  1.77903E+06  1.43317E+06  1.14512E+06
   9.27236E+05  7.60144E+05  6.27165E+05  5.21396E+05  4.32187E+05  3.55332E+05  2.92690E+05  2.44508E+05  2.14561E+05  2.05070E+05
   2.13955E+05  2.35164E+05  2.61688E+05  2.88928E+05  3.12721E+05  3.27774E+05  3.30850E+05  3.21053E+05  2.99650E+05  2.69184E+05
   2.34189E+05  1.99534E+05  1.68706E+05  1.42447E+05  1.20344E+05  1.03098E+05  9.29267E+04  8.95947E+04  9.20921E+04  9.90762E+04
   1.08847E+05  1.19385E+05  1.28315E+05  1.33405E+05  1.35067E+05  1.35861E+05  1.39562E+05  1.47569E+05  1.58993E+05  1.72208E+05
   1.86361E+05  2.00566E+05  2.12893E+05  2.20482E+05  2.21201E+05  2.14465E+05  1.99788E+05  1.77827E+05  1.54608E+05  1.38437E+05
   1.34954E+05  1.42582E+05  1.52853E+05  1.54838E+05  1.42138E+05  1.15352E+05  7.99019E+04  4.31748E+04  1.22901E+04 -9.49643E+03
  -2.46790E+04 -3.86381E+04 -5.31048E+04 -6.32997E+04 -6.46912E+04 -5.91055E+04 -4.75933E+04 -2.86806E+04 -5.55398E+02  3.53957E+04
   7.54343E+04  1.15421E+05  1.48322E+05  1.67312E+05  1.72354E+05  1.69462E+05  1.67430E+05  1.73943E+05  1.92460E+05  2.18660E+05
   2.42637E+05  2.55441E+05  2.54853E+05  2.43050E+05  2.27290E+05  2.14044E+05  2.04132E+05  1.93160E+05  1.78366E+05  1.61950E+05
   1.46012E+05  1.32030E+05  1.22446E+05  1.18452E+05  1.18201E+05  1.19369E+05  1.23012E+05  1.29743E+05  1.39176E+05  1.51409E+05
   1.66890E+05  1.84682E+05  2.02471E+05  2.16598E+05  2.23465E+05  2.21796E+05  2.14077E+05  2.03727E+05  1.95868E+05  1.99240E+05
   2.20578E+05  2.59100E+05  3.05652E+05  3.48761E+05  3.82333E+05  4.05259E+05  4.17116E+05  4.15103E+05  4.00084E+05  3.79237E+05
   3.57660E+05  3.33061E+05  3.00040E+05  2.59958E+05  2.22889E+05  1.99158E+05  1.98533E+05  2.32016E+05  3.01080E+05  4.01406E+05
   5.29584E+05  6.70205E+05  7.97293E+05  8.90873E+05  9.43298E+05  9.50031E+05  9.11433E+05  8.33723E+05  7.27191E+05  6.04151E+05
   4.83403E+05  3.87022E+05  3.26108E+05  2.99601E+05  3.05651E+05  3.47502E+05  4.16952E+05  4.95155E+05  5.64643E+05  6.10562E+05
   6.24189E+05  6.07376E+05  5.72714E+05  5.35150E+05  5.03435E+05  4.77102E+05  4.54175E+05  4.33627E+05  4.17172E+05  4.07065E+05
   4.02417E+05  4.02181E+05  4.04930E+05  4.09043E+05  4.13399E+05  4.17901E+05  4.23429E+05  4.30879E+05  4.40228E+05  4.50615E+05
   4.59666E+05  4.65729E+05  4.68125E+05  4.66856E+05  4.62942E+05  4.57297E+05  4.54008E+05  4.60121E+05  4.79792E+05  5.12190E+05
   5.54461E+05  5.99817E+05  6.39846E+05  6.69033E+05  6.84870E+05  6.85496E+05  6.75168E+05  6.61287E+05  6.52147E+05  6.54891E+05
   6.73246E+05  7.04735E+05  7.43284E+05  7.83388E+05  8.24955E+05  8.69627E+05  9.20902E+05  9.98147E+05  1.13518E+06  1.33326E+06
